Arbitrary start time (ms),S13 dx/dt (mm/s),S14 dx/dt (mm/s),S15 dx/dt (mm/s),S16 dx/dt (mm/s),S17 dx/dt (mm/s),S18 dx/dt (mm/s),S19 dx/dt (mm/s),S20 dx/dt (mm/s),S21 dx/dt (mm/s),S22 dx/dt (mm/s),S23 dx/dt (mm/s)
0.0,89.33437894598757,84.61763373986498,713.384374472406,89.24391839400158,94.73902247180965,90.1837782242964,89.01915885815995,92.09102872034427,87.88096950752082,99.66709130253263,91.84967083797083
0.1,113.57665149546067,104.00205907614847,1061.5323897246449,112.1486763491898,119.96376953618093,112.63769328024541,109.5049677707007,117.1961596793347,110.89048770715037,124.60432622107427,115.96535159128175
0.2,139.91728596067387,126.41310307516534,1741.8346379891645,137.6628821958699,148.58235052315223,138.6245755094211,133.03352320746927,145.88307380960978,136.31263128217662,153.41571061696428,143.32247375252095
0.30000000000000004,168.42926573360245,152.12791285704972,2384.105388556395,165.63928980928702,180.25573885437944,168.031891319624,159.78829570371542,177.95598155259486,164.1117231338238,186.2629073764257,174.0585923505428
0.4,199.25601298381818,181.41719677714198,2978.203466390056,195.96260015190987,214.54881432134084,200.62239277478392,189.89432443617628,213.18083955352523,194.30557456075246,223.18725500155594,208.22221228399343
0.5,232.55012895563428,214.5939383603884,3518.740431800792,228.53566869627485,250.96494006279988,236.05643551152625,223.36045994793682,251.27731419103574,226.9388069754476,264.06311065726794,245.72266318045172
0.6000000000000001,268.40162816426215,252.00564391410995,4006.0459874370044,263.2631060481496,289.00419823798154,273.93843842332114,260.0601782944448,291.931542599278,262.04188194302037,308.60256309612157,286.26862739314765
0.7000000000000001,306.7606475388996,294.0286874974487,4446.407837341929,300.02118609846667,328.21336539313023,313.8422997005729,299.7201133507502,334.77421187341355,299.6042454611739,356.3455295056781,329.3980277499394
0.8,347.35610270278545,340.9835669793795,1940.7337356442422,338.61445508477055,368.2124153425442,355.3183936077074,341.9085034249649,379.36230654223715,339.5192208802103,406.64291983999846,374.5040922689106
0.9,389.7325915005356,392.99382296120496,1746.3614226770567,378.75878721023406,408.71346574646134,397.9113194105707,386.0533503905006,425.17037277780355,381.56045905224164,458.69570185230765,420.8989245660057
1.0,433.2510807819166,449.8615408334543,3751.5474280345697,420.09522568604257,449.5065824619855,441.1508176156562,431.4819224072628,471.58044315948257,425.4126001285264,511.5752426496409,467.8943385687128
1.1,477.12203169281565,510.8522613579534,6035.324964498255,462.2429599578349,490.44580436314806,484.56739156220897,477.5097047121198,517.9032754966636,470.6822708408772,564.2719449128375,514.8644712039493
1.2000000000000002,520.5128508634822,574.6347193923563,6476.193702639349,504.84935029606834,531.4267350104121,527.7108483869446,523.4663470952078,563.419705971439,516.9683853546155,615.737135201453,561.2925213382077
1.3,562.6622740687191,639.3017605830481,6954.43677713493,547.652249624646,572.37439228116,570.1574121070344,568.7568235134514,607.4392695256673,563.8959835158469,664.9481475397843,606.7797537690293
1.4000000000000001,602.9429436170913,702.4773337638889,7464.427231229606,590.53329782044,613.2237692167843,611.5619049148615,612.913573194174,649.3667048091116,611.1486466318008,711.013798740588,651.043299958455
1.5,640.9905493722862,761.5981903870543,5325.6313753465165,633.5417920621285,653.9543410236358,651.689425105318,655.6115490634096,688.7711876379201,658.5091732841686,753.2282853060008,693.9223673458429
1.6,676.7487115410892,814.2622741092731,2833.1877652444864,676.8839363740914,694.6057078226687,690.4489751599187,696.672589863263,725.4586843276703,705.8265456647273,791.1714443798475,735.3451527921851
1.7000000000000002,710.4357092162924,858.5893330207264,2988.9396397833534,720.8672308792868,735.2993851884338,727.9343889598314,736.068193855296,759.5011180063476,752.9855495317645,824.7625733377836,775.3159653237561
1.8,742.5855046654668,893.5520662333573,3744.9659223250333,765.822146565234,776.2676049753513,764.4117038183527,773.9413305359619,791.25028066469,799.8953344514118,854.3020688335656,813.9328341240792
1.9000000000000001,774.0117234305677,919.1720033714737,4834.616382739993,812.0250157440745,817.8203464404753,800.3053617778503,810.5713780457559,821.3368983508412,846.4340973148168,880.5083244068161,851.3892858445371
2.0,805.7084899223579,936.5466122534103,1318.2192467321925,859.5982289602697,860.2923877192362,836.1838456562269,846.3753464627401,850.6145550768208,892.4159042026957,904.4520853182999,887.9887577415702
2.1,838.7976441616489,947.7355983466124,1337.689183054407,908.4633627190636,903.9946980356913,872.6996798003233,881.9029724474806,880.1048172699413,937.6181215550228,927.5206333250896,924.1328506857107
2.2,874.4455282231661,955.5232929205802,10141.278217315908,958.3292185375203,949.1285531492805,910.5224050403843,917.779149449958,910.9073285071383,981.7844194639921,951.3187743567369,960.3146883376814
2.3000000000000003,913.7119258276567,963.0828605065468,10254.732718716175,1008.7351657506072,995.7297861144485,950.291549792828,954.6699579460579,944.0966547304881,1024.6790794388678,977.523751201915,997.0838079197789
2.4000000000000004,957.4799134787507,973.6491416714165,10412.49964104877,1059.1365622763913,1043.6881862522953,992.5682445651489,993.2480608028698,980.632852891398,1066.1598750783392,1007.7558812680509,1035.0013741702628
2.5,1006.3367683022473,990.1958730170862,10639.51839840653,1109.017530924316,1092.7604993724713,1037.7774826860943,1034.1102787014893,1021.2637316339786,1106.2535764869747,1043.4061160031818,1074.5881819663102
2.6,1060.4871638190311,1015.139549741064,10936.85959457623,1158.0463525052332,1142.6711290544872,1086.184370087122,1077.7411550395445,1066.4573736300704,1145.2326438036505,1085.4807058376225,1116.2634513635473
2.7,1119.695897253873,1050.1592839319776,11277.700605618538,1206.1399218761344,1193.1942718450387,1137.8767877118564,1124.49123991038,1116.3668080172008,1183.6657019477686,1134.4976991045671,1160.303420584763
2.8000000000000003,1183.279849206104,1096.041975983408,11610.187692228586,1253.5490262842682,1244.2351406782798,1192.7976517922793,1174.5452493074865,1170.8373121285497,1222.4040498039917,1190.4230784744755,1206.7728589681446
2.9000000000000004,1250.193638286383,1152.6149658595511,3955.6144259344455,1300.8520782335236,1295.8676058354597,1250.7416445651738,1227.9220899284485,1229.4288623173989,1262.5148344137897,1252.6427760720042,1255.5304395516127
3.0,1319.1892922401016,1218.773889552232,2177.9480177290084,1348.8484747795906,1348.3280178706605,1311.3499789323748,1284.4906135307697,1291.4761287720096,1305.177150888957,1320.040707113852,1306.2701591611888
3.1,1388.980215249336,1292.6117865134386,914.638888036125,1398.422396284178,1401.9468251421638,1374.1703103840625,1343.9857178360242,1356.1825363234059,1351.4996509587331,1391.1191888899623,1358.564874478777
3.2,1458.423502397708,1371.6406596866282,1102.0615735885435,1450.3750223333789,1457.025508024075,1438.6453638001783,1405.9918118754974,1422.6867972405037,1402.3317072081506,1464.1749178536693,1411.9708921054603
3.3000000000000003,1526.6855163965236,1453.1062447127435,11024.924753170037,1505.2396416228498,1513.7586138890204,1504.1174569957386,1469.9567279946477,1490.1133951536422,1458.0861023216166,1537.493058747215,1466.134570689477
3.4000000000000004,1593.279427922266,1534.3375833196676,10283.816656159663,1563.132065550645,1572.1384904099527,1569.8302102475286,1535.205209466382,1557.6157052460653,1518.6263904202488,1609.494649584526,1520.867694763935
3.5,1658.0117269955488,1613.0927171672731,9406.150340608705,1623.7015567497326,1631.9076153143428,1634.9634646962372,1600.9411685865412,1624.4077552357328,1583.2320214741005,1678.8822440821125,1576.1641284554487
3.6,1720.8748144980252,1687.7847268363637,8462.454509285999,1686.1830930360584,1692.5738870684852,1698.6857653500433,1666.2793343840099,1689.7578573093112,1650.6566117305492,1744.7190853612892,1632.1816253838037
3.7,1781.8803633394455,1757.575181954019,7523.406257375666,1749.5134534495598,1753.4906320872276,1760.2212608198392,1730.30630613534,1753.0097282542054,1719.3074317912722,1806.4480408662057,1689.1553248341977
3.8000000000000003,1840.9247754791277,1822.3302942913665,6649.120507886815,1812.510377312099,1813.9689067955667,1818.9713992440786,1792.2004172375791,1813.617855474893,1787.4906770617315,1863.8699310917593,1747.2608668242128
3.9000000000000004,1897.750339682548,1882.4354152098438,5882.072072944143,1874.077322376539,1873.3822423836873,1874.6116923409236,1851.343187739705,1871.2028583924862,1853.6547871811758,1917.1257435325354,1806.508156422472
4.0,1952.0160205490251,1938.5208413350344,5244.82405221007,1933.3566808404057,1931.2556613032841,1927.1891269033306,1907.4211178422638,1925.6156013221373,1916.626538125515,1966.6396413156808,1866.6606542225063
4.1000000000000005,2003.4533097816047,1991.1852875855514,4741.455225412164,1989.8292464955032,1987.32526817588,1977.1406779255474,1960.5189659829996,1976.9917613381838,1975.7341224464542,2013.0657391336504,1927.206409564464
4.2,2052.0035797221094,2040.9051219075407,4362.7891083063905,2043.3293059530774,2041.5104433106405,2025.242065766348,2011.1055368300292,2025.7612510985111,2030.8111609750185,2057.2486820122413,1987.4412807467365
4.3,2097.9440064993505,2087.9799824501188,4090.871544265038,2093.9556403492898,2093.846606210494,2072.479314119506,2059.9533585245804,2072.588027703486,2082.121000439028,2100.134252859729,2046.5907886551217
4.4,2141.9209517875356,2132.588904148004,3903.5123324059687,2141.958685017978,2144.402350606863,2119.8333122185277,2107.978791416311,2118.266013155729,2130.1790432019134,2142.665309279673,2103.955668379111
4.5,2184.8323042717593,2174.987437278686,3779.454696453291,2187.6312661975644,2193.204958234611,2168.089823833208,2156.0312203745816,2163.540079556521,2175.577729688536,2185.6719104203476,2159.0522485743227
4.6000000000000005,2227.640384920669,2215.615862722807,3700.1727360443037,2231.247701320676,2240.218005529691,2217.6876684573517,2204.7253040471383,2208.9601010400706,2218.8615483877857,2229.7618888676925,2211.7028559335317
4.7,2271.1569768176137,2255.149513051655,3651.010747582186,2273.05115760114,2285.364271575011,2268.6382849513425,2254.3237440793782,2254.7980449249035,2260.465767968689,2275.249914269401,2262.055633313984
4.800000000000001,2315.8931516595935,2294.452295653789,3621.25355917659,2313.308090440889,2328.629581664047,2320.5870565979294,2304.7280071434934,2301.011274030818,2300.7279921824215,2322.1604053048186,2310.506414454996
4.9,2361.9982435547404,2334.4352120664566,3603.6182567464825,2352.391599233034,2370.176770096396,2372.955639561315,2355.5592041088184,2347.340905129091,2339.993454190479,2370.271332228219,2357.5931944548533
5.0,2409.3203783973413,2375.88506121225,3593.4438420797615,2390.820008785044,2410.4031477690332,2425.123637820478,2406.3263512157837,2393.46698763818,2378.671828693018,2419.224531735653,2403.877908796213
5.1000000000000005,2457.5551715013694,2419.3199098527193,3588.0490861590574,2429.2708618133233,2449.9641282027806,2476.5805216912186,2456.5753497335413,2439.170334992512,2417.262026475486,2468.636158054594,2449.823503533751
5.2,2506.375803468969,2464.921018159814,3585.7105089472834,2468.5133795165248,2489.6973245966333,2527.035079581238,2506.0046330701616,2484.461549855997,2456.370417095784,2518.1871385813524,2495.7042505075574
5.300000000000001,2555.5919178825066,2512.504853964898,3586.0645136044805,2509.31209257537,2530.478722644881,2576.4379359836194,2554.5408734322423,2529.6065576792857,2496.5950354168594,2567.694724177085,2541.6242707841957
5.4,2605.160443530888,2561.64032857775,3588.547870399918,2552.2912311901514,2573.0480336988367,2624.8897159739886,2602.277913961114,2575.058128022005,2538.4236480371624,2617.0873147972925,2587.5540779065145
5.5,2655.1343845334636,2611.7529053826197,3591.8643105747033,2597.8026338815816,2617.843218080718,2672.5475596747774,2649.384816273179,2621.29359590396,2582.1431954442855,2666.337664165818,2633.389682764863
5.6000000000000005,2705.5361077093858,2662.213897457301,3595.442369369662,2645.8457165869427,2664.882645595336,2719.491201784685,2695.9976401314316,2668.656801183639,2627.767973299835,2715.3917812778805,2679.0251666840645
5.7,2756.2107594172066,2712.4453476215326,3598.6046398123895,2696.043068045539,2713.769487751201,2765.641394917032,2742.1155187379677,2717.1702389191105,2675.0288291162096,2764.078509031754,2724.379721303684
5.800000000000001,2806.752762171268,2761.9235320468424,3600.680026169595,2747.6500407600847,2763.7453789546585,2810.7554992792216,2787.578294962452,2766.474269926028,2723.4135830041523,2812.070617734354,2769.406160201618
5.9,2856.486089728978,2810.1620839651437,3601.123593424983,2799.644949085893,2813.799438501325,2854.4544075463455,2832.0680040746183,2815.86271173686,2772.2585860513714,2858.870697096764,2814.0543823177827
6.0,2904.549623962597,2856.710001150619,3599.6196936877245,2850.823530603493,2862.8399718717537,2896.3049505045174,2875.1698660788948,2864.366026441221,2820.8181041087855,2903.870876464142,2858.2106050746197
6.1000000000000005,2950.012403356852,2901.1443474887833,3596.1266389368216,2899.915044781013,2909.809433062295,2935.888810516674,2916.447827568534,2910.925129094638,2868.3378456025,2946.4384458434843,2901.6409229949736
6.2,2992.01856684013,2943.1069920905497,3590.883024705715,2945.722662837995,2953.7910049093916,2972.8714984974263,2955.50419398515,2954.5662268342157,2914.090893908595,2985.959276669433,2944.0176138023457
6.300000000000001,3029.9120214571003,2982.34493918747,3584.3477788954597,2987.2355317961874,2994.0838255661106,3007.0493618317087,2992.0343920870096,2994.538902257687,2957.420778592934,3021.944982216296,2984.9314220904544
6.4,3063.322923356876,3018.7129720399344,3577.1384800039073,3023.750318302432,3030.2589350838202,3038.3703012630845,3025.836135197919,3030.3857895403594,2997.787956014452,3054.11056189575,3023.9368552275027
6.5,3092.1781576238595,3052.197529040422,3569.9507299022002,3054.970315960527,3062.169374558633,3066.932177195466,3056.845615956175,3062.0035670169987,3034.7933382898004,3082.3988153951204,3060.6546553045705
6.6000000000000005,3116.7307655743134,3082.8943518945634,3563.4784375205813,3081.0573008903048,3089.965857094992,3092.9849468872385,3085.148048519298,3089.6343739498457,3068.207835496449,3107.026673015891,3094.809737188964
6.7,3137.5161431991737,3110.9643597391387,3558.3654943160473,3102.60463551165,3114.074742556365,3116.9262553674134,3110.9660321941665,3113.8193110084576,3097.9902672674166,3128.4721209396153,3126.272440472259
6.800000000000001,3155.289592777769,3136.6105517235164,3555.106188181765,3120.579649420189,3135.1584074528814,3139.2613617518964,3134.648680367381,3135.3328508361315,3124.299184266785,3147.424093101473,3155.071896219875
6.9,3170.982698140301,3160.0511919639534,3553.9922965823625,3136.190026331088,3154.038959136665,3160.5394089819133,3156.653010621449,3155.0743779921736,3147.467365024914,3164.7420334682083,3181.3749656116897
7.0,3185.606352754939,3181.5341780296744,3555.120527664042,3150.7391726999062,3171.601608963124,3181.3225362167486,3177.5071995376948,3173.9678877106826,3167.9660852454617,3181.355384132212,3205.4328376492667
7.1000000000000005,3200.1440247226014,3201.3234236432245,3558.3202723237773,3165.473886350492,3188.6983887624406,3202.131156861491,3197.7528317098854,3192.8744286755314,3186.360921419486,3198.1570015294888,3227.522867510878
7.2,3215.504273248847,3219.731185336535,3563.1605622289844,3181.4536277027173,3206.0751901905396,3223.37184095138,3217.9096287653906,3212.4798848796117,3203.2805695887637,3215.9219517152583,3247.970582510127
7.300000000000001,3232.4339687925412,3237.1663687637447,3568.98869761427,3199.443027465826,3224.325361994502,3245.3279161629944,3238.445121328725,3233.2515224833496,3219.367088474222,3235.224828826993,3267.1100123882497
7.4,3251.4354978416327,3254.114077637289,3574.979548702015,3219.8674985482044,3243.825736013171,3268.1312010713755,3259.7185883758107,3255.4320910536694,3235.226371392984,3256.373638316652,3285.263355132221
7.5,3272.73921947087,3271.1204201448445,3580.244593670056,3242.813571056688,3264.7629152255804,3291.764687805218,3281.946770173837,3279.0110380658657,3251.4023785198765,3279.3971825536996,3302.7523169889946
7.6000000000000005,3296.2534387812857,3288.729320382137,3583.9957523573357,3268.05778758048,3287.1700227086844,3316.0835866839493,3305.2007338215126,3303.7744431697056,3268.3550656928646,3304.0787941194103,3319.8879167445243
7.7,3321.631567349546,3307.421501833024,3585.6712306882737,3295.148688057926,3310.9645805170844,3340.866587915816,3329.402394045833,3329.372542410536,3286.468465656659,3329.9971772002236,3336.9463311526215
7.800000000000001,3348.343075222619,3327.4901684352653,3585.0487182851903,3323.5001012706293,3335.9906581413534,3365.8612315392998,3354.341588491621,3355.370336319556,3306.026552238469,3356.60943373502,3354.1480749430725
7.9,3375.7323137858916,3348.998908614835,3582.3560185808783,3352.4664889761375,3362.034689124488,3390.8057308581356,3379.685901976944,3381.3319112822624,3327.1878326250117,3383.3490924779594,3371.6864992668607
8.0,3403.117244702019,3371.764227238517,3578.2188674015856,3381.3892535855844,3388.8349213906563,3415.4609247496114,3405.0202356450136,3406.83769986744,3349.959979823229,3409.664540395072,3389.6967951100446
8.1,3429.8353829181365,3395.359765287838,3573.581040616143,3409.6574862393413,3416.0538816296526,3439.5961092705343,3429.8728594607524,3431.5073758113085,3374.1705069274017,3435.062676564273,3408.250014288585
8.200000000000001,3455.2704020147903,3419.2211551299056,3569.545751110934,3436.716904983443,3443.268947619246,3462.9897114893,3453.7518459716384,3455.0341122568793,3399.4770268025313,3459.1307621608794,3427.376216767372
8.3,3478.9160550268575,3442.7045996277607,3567.416039496618,3462.0903875087524,3469.9793018760784,3485.429392642245,3476.201165681701,3477.1583467015857,3425.3919243939363,3481.5259440323557,3447.05701123634
8.4,3500.3726207240925,3465.1992029613584,3568.1704679761992,3485.408704453803,3495.6197258815246,3506.7128017259524,3496.836609319771,3497.6836374646746,3451.320509600844,3501.9824277775474,3467.209065082571
8.5,3519.3425081512387,3486.2422376390186,3572.653595417603,3506.3959019002364,3519.612426268749,3526.672475561453,3515.405831249054,3516.488429116193,3476.6227264690456,3520.307153183252,3487.6974319096666
8.6,3535.6278551476435,3505.5593970991044,3581.7315582225397,3524.8849593493915,3541.4020733803036,3545.171583387905,3531.8008384846758,3533.525310150379,3500.6893212697737,3536.4106410491,3508.344967685743
8.700000000000001,3549.159513619782,3523.071944699622,3596.0519740972463,3540.8261267956627,3560.5383615875444,3562.1323895184223,3546.0667298143685,3548.8324396190405,3523.007392961871,3550.3339596554542,3528.9256814700266
8.8,3560.0017184258495,3538.9005009038906,3616.846885396295,3554.2782251365115,3576.739087238718,3577.556076464714,3558.413649815191,3562.5246100322674,3543.2176896295127,3562.257864925198,3549.1802212997572
8.9,3568.3554574676577,3553.274751910647,3646.308448463575,3565.4360358363533,3589.921787477021,3591.522588741793,3569.1952792926827,3574.801005263919,3561.1390963820722,3572.524681186917,3568.858647791342
9.0,3574.5979627153133,3566.4378526176342,3687.921917083835,3574.6131229482744,3600.238422524068,3604.1748411030417,3578.8785015386225,3585.922358431514,3576.753284137237,3581.6172356947045,3587.719623281384
9.1,3579.2436167438914,3578.6242408874045,3746.9569286536234,3582.205718155262,3608.044610202057,3615.67584195808,3587.9785031628985,3596.1831356739926,3590.1890390367835,3590.0913959425334,3605.5439628556874
9.200000000000001,3582.9042346124534,3590.0052655062036,3830.7593816505273,3588.6622147051066,3613.840143657295,3626.1872878860786,3597.001458677379,3605.868020825766,3601.645635509213,3598.49796151576,3622.15238375246
